"Time [s]","Inertia.w [rad/s]","Piston.r_0[2] [m]"
0,0,0.399999925000011
1E-006,9.40383143976429E-006,0.39999992500001
6E-006,5.64230018455651E-005,0.399999924999967
1.6E-005,0.000150461391313737,0.399999924999812
2.6E-005,0.000244499922272335,0.399999924999516
3.6E-005,0.000338538683153029,0.399999924999079
4.6E-005,0.000432577762387704,0.3999999249985
5.6E-005,0.000526617248408543,0.399999924997781
6.6E-005,0.000620657229648113,0.39999992499692
7.6E-005,0.000714697794539447,0.399999924995919
8.6E-005,0.000808739031516126,0.399999924994776
9.6E-005,0.000902781029012362,0.399999924993492
0.000106,0.000996823875463085,0.399999924992068
0.000116,0.00109086765930402,0.399999924990502
0.000126,0.00118491246897178,0.399999924988795
0.000136,0.00127895839290393,0.399999924986947
0.000146,0.00137300551953909,0.399999924984958
0.000156,0.00146705393731702,0.399999924982827
0.000166,0.00156110373467868,0.399999924980556
0.000176,0.00165515500006633,0.399999924978144
0.000186,0.00174920782192362,0.39999992497559
0.000196,0.00184326228869565,0.399999924972895
0.000206,0.00193731848882908,0.399999924970059
0.000216,0.00203137651077218,0.399999924967082
0.000226,0.00212543644297497,0.399999924963964
0.000236,0.00221949837388922,0.399999924960704
0.000246,0.00231356239196861,0.399999924957303
0.000256,0.00240762858566878,0.399999924953761
0.000266,0.0025016970434474,0.399999924950078
0.000276,0.00259576785376428,0.399999924946254
0.000286,0.00268984110508146,0.399999924942288
0.000296,0.00278391688586324,0.399999924938181
0.000306,0.00287799528457631,0.399999924933933
0.000316,0.00297207638968984,0.399999924929543
0.000326,0.00306616028967553,0.399999924925013
0.000336,0.00316024707300771,0.39999992492034
0.000346,0.00325433682816341,0.399999924915527
0.000356,0.00334842964362249,0.399999924910572
0.000366,0.00344252560786763,0.399999924905475
0.000376,0.00353662480938453,0.399999924900238
0.000386,0.00363072733666191,0.399999924894858
0.000396,0.00372483327819159,0.399999924889338
0.000406,0.00381894272246865,0.399999924883676
0.000416,0.00391305575799143,0.399999924877872
0.000426,0.00400717247326166,0.399999924871927
0.000436000000000001,0.00410129295678453,0.39999992486584
0.000446000000000001,0.00419541729706876,0.399999924859612
0.000456000000000001,0.00428954558262672,0.399999924853242
0.000466000000000001,0.00438367790197446,0.399999924846731
0.000476000000000001,0.00447781434363185,0.399999924840078
0.000486000000000001,0.00457195499612263,0.399999924833283
0.000496000000000001,0.00466609994797449,0.399999924826347
0.000506000000000001,0.00476024928771917,0.399999924819269
0.000516000000000001,0.00485440310389253,0.399999924812049
0.000526000000000001,0.00494856148503465,0.399999924804687
0.000536000000000001,0.00504272451968989,0.399999924797184
0.000546000000000001,0.00513689229640699,0.399999924789539
0.000556000000000001,0.00523106490373916,0.399999924781752
0.000566000000000001,0.00532524243024413,0.399999924773823
0.000576000000000001,0.00541942496448429,0.399999924765752
0.000586000000000001,0.0055136125950267,0.399999924757539
0.000596000000000001,0.00560780541044323,0.399999924749184
0.000606000000000001,0.00570200349931064,0.399999924740687
0.000616000000000001,0.00579620695021061,0.399999924732049
0.000626000000000001,0.00589041585172991,0.399999924723268
0.000636000000000001,0.0059846302924604,0.399999924714345
0.000646000000000001,0.00607885036099916,0.39999992470528
0.000656000000000001,0.00617307614594857,0.399999924696072
0.000666000000000001,0.00626730773591636,0.399999924686723
0.000676000000000001,0.00636154521951576,0.399999924677231
0.000686000000000001,0.00645578868536549,0.399999924667597
0.000696000000000001,0.00655003822208994,0.399999924657821
0.000706000000000001,0.00664429391831919,0.399999924647902
0.000716000000000001,0.00673855586268912,0.399999924637841
0.000726000000000001,0.00683282414384146,0.399999924627638
0.000736000000000001,0.00692709885042393,0.399999924617292
0.000746000000000001,0.00702138007109027,0.399999924606804
0.000756000000000001,0.00711566789450037,0.399999924596173
0.000766000000000001,0.0072099624093203,0.399999924585399
0.000776000000000001,0.00730426370422244,0.399999924574483
0.000786000000000001,0.00739857186788554,0.399999924563424
0.000796000000000001,0.00749288698899481,0.399999924552223
0.000806000000000001,0.007587209156242,0.399999924540879
0.000816000000000002,0.00768153845832548,0.399999924529392
0.000826000000000002,0.00777587498395035,0.399999924517762
0.000836000000000002,0.00787021882182849,0.399999924505989
0.000846000000000002,0.00796457006067864,0.399999924494074
0.000856000000000002,0.00805892878922652,0.399999924482015
0.000866000000000002,0.00815329509620489,0.399999924469813
0.000876000000000002,0.00824766907035364,0.399999924457469
0.000886000000000002,0.00834205080041984,0.399999924444981
0.000896000000000002,0.00843644037515789,0.39999992443235
0.000906000000000002,0.00853083788332956,0.399999924419576
0.000916000000000002,0.00862524341370405,0.399999924406659
0.000926000000000002,0.00871965705505815,0.399999924393598
0.000936000000000002,0.00881407889617623,0.399999924380394
0.000946000000000002,0.0089085090258504,0.399999924367047
0.000956000000000002,0.00900294753288056,0.399999924353556
0.000966000000000002,0.00909739450607449,0.399999924339922
0.000976000000000002,0.00919185003424791,0.399999924326144
0.000986000000000002,0.0092863142062246,0.399999924312223
0.000996000000000002,0.00938078711083648,0.399999924298158
0.001006,0.00947526883692366,0.399999924283949
0.001016,0.00956975947333456,0.399999924269597
0.001026,0.00966425910892596,0.3999999242551
0.001036,0.00975876783256312,0.39999992424046
0.001046,0.00985328573311984,0.399999924225676
0.001056,0.00994781289947855,0.399999924210748
0.001066,0.0100423494205304,0.399999924195676
0.001076,0.0101368953851753,0.39999992418046
0.001086,0.0102314508823221,0.3999999241651
0.001096,0.0103260160008886,0.399999924149595
0.001106,0.0104205908298015,0.399999924133947
0.001116,0.010515175457997,0.399999924118153
0.001126,0.01060976997442,0.399999924102216
0.001136,0.0107043744680252,0.399999924086134
0.001146,0.0107989890277763,0.399999924069908
0.001156,0.0108936137426467,0.399999924053537
0.001166,0.0109882487016192,0.399999924037021
0.001176,0.0110828939936864,0.399999924020361
0.001186,0.0111775497078505,0.399999924003556
0.001196,0.0112722159331234,0.399999923986607
0.001206,0.0113668927585271,0.399999923969512
0.001216,0.0114615802730935,0.399999923952272
0.001226,0.0115562785658645,0.399999923934888
0.001236,0.011650987725892,0.399999923917358
0.001246,0.0117457078422385,0.399999923899684
0.001256,0.0118404390039765,0.399999923881864
0.001266,0.0119351813001889,0.399999923863898
0.001276,0.0120299348199692,0.399999923845788
0.001286,0.0121246996524213,0.399999923827532
0.001296,0.0122194758866599,0.399999923809131
0.001306,0.0123142636118103,0.399999923790584
0.001316,0.0124090629170088,0.399999923771891
0.001326,0.0125038738914022,0.399999923753053
0.001336,0.0125986966241487,0.399999923734069
0.001346,0.0126935312044172,0.399999923714939
0.001356,0.0127883777213881,0.399999923695663
0.001366,0.0128832362642527,0.399999923676242
0.001376,0.0129781069222138,0.399999923656674
0.001386,0.0130729897844855,0.39999992363696
0.001396,0.0131678849402934,0.3999999236171
0.001406,0.0132627924788747,0.399999923597094
0.001416,0.0133577124894782,0.399999923576941
0.001426,0.0134526450613645,0.399999923556642
0.001436,0.0135475902838058,0.399999923536197
0.001446,0.0136425482460865,0.399999923515605
0.001456,0.0137375190375028,0.399999923494866
0.001466,0.0138325027473629,0.399999923473981
0.001476,0.0139274994649873,0.399999923452949
0.001486,0.0140225092797087,0.39999992343177
0.001496,0.0141175322808721,0.399999923410444
0.001506,0.0142125685578348,0.399999923388971
0.001516,0.0143076181999667,0.39999992336735
0.001526,0.0144026812966502,0.399999923345583
0.001536,0.0144977579372804,0.399999923323668
0.001546,0.0145928482112653,0.399999923301606
0.001556,0.0146879522080252,0.399999923279397
0.001566,0.014783070016994,0.39999992325704
0.001576,0.014878201727618,0.399999923234535
0.001586,0.0149733474293569,0.399999923211883
0.001596,0.0150685072116834,0.399999923189083
0.001606,0.0151636811640836,0.399999923166135
0.001616,0.0152588693760567,0.399999923143039
0.001626,0.0153540719371155,0.399999923119795
0.001636,0.0154492889367863,0.399999923096403
0.001646,0.0155445204646088,0.399999923072863
0.001656,0.0156397666101365,0.399999923049174
0.001666,0.0157350274629366,0.399999923025337
0.001676,0.0158303031125901,0.399999923001352
0.001686,0.0159255936486921,0.399999922977218
0.001696,0.0160208991608514,0.399999922952935
0.001706,0.0161162197386911,0.399999922928503
0.001716,0.0162115554718484,0.399999922903923
0.001726,0.0163069064499747,0.399999922879194
0.001736,0.0164022727627359,0.399999922854315
0.001746,0.0164976544998121,0.399999922829288
0.001756,0.016593051750898,0.399999922804111
0.001766,0.016688464605703,0.399999922778785
0.001776,0.016783893153951,0.39999992275331
0.001786,0.0168793374853808,0.399999922727685
0.001796,0.0169747976897458,0.399999922701911
0.001806,0.0170702738568147,0.399999922675986
0.001816,0.0171657660763708,0.399999922649912
0.001826,0.0172612744382129,0.399999922623688
0.001836,0.0173567990321547,0.399999922597315
0.001846,0.0174523399480251,0.39999992257079
0.001856,0.0175478972756687,0.399999922544116
0.001866,0.0176434711049452,0.399999922517292
0.001876,0.01773906152573,0.399999922490317
0.001886,0.017834668627914,0.399999922463191
0.001896,0.0179302925014039,0.399999922435916
0.001906,0.0180259332361219,0.399999922408489
0.001916,0.0181215909220065,0.399999922380911
0.001926,0.0182172656490117,0.399999922353183
0.001936,0.0183129575071077,0.399999922325304
0.001946,0.018408666586281,0.399999922297273
0.001956,0.018504392976534,0.399999922269091
0.001966,0.0186001367678855,0.399999922240758
0.001976,0.0186958980503707,0.399999922212274
0.001986,0.0187916769140411,0.399999922183638
0.001996,0.018887473448965,0.39999992215485
0.002006,0.018983287745227,0.39999992212591
0.002016,0.0190791198929286,0.399999922096819
0.002026,0.019174969982188,0.399999922067576
0.002036,0.0192708381031404,0.39999992203818
0.002046,0.0193667243459378,0.399999922008633
0.002056,0.0194626288007494,0.399999921978933
0.002066,0.0195585515577613,0.39999992194908
0.002076,0.0196544927071769,0.399999921919076
0.002086,0.0197504523392172,0.399999921888918
0.002096,0.01984643054412,0.399999921858608
0.002106,0.0199424274121411,0.399999921828145
0.002116,0.0200384430335535,0.399999921797528
0.002126,0.020134477498648,0.399999921766759
0.002136,0.0202305308977331,0.399999921735837
0.002146,0.0203266033211351,0.399999921704761
0.002156,0.0204226948591982,0.399999921673532
0.002166,0.0205188056022844,0.399999921642149
0.002176,0.020614935640774,0.399999921610612
0.002186,0.0207110850650654,0.399999921578922
0.002196,0.0208072539655751,0.399999921547078
0.002206,0.0209034424327381,0.399999921515079
0.002216,0.0209996505570075,0.399999921482927
0.002226,0.0210958784288552,0.39999992145062
0.002236,0.0211921261387716,0.399999921418159
0.002246,0.0212883937772656,0.399999921385543
0.00225600000000001,0.021384681434865,0.399999921352773
0.00226600000000001,0.0214809892021163,0.399999921319848
0.00227600000000001,0.021577317169585,0.399999921286768
0.00228600000000001,0.0216736654278555,0.399999921253533
0.00229600000000001,0.0217700340675315,0.399999921220143
0.00230600000000001,0.0218664231792356,0.399999921186597
0.00231600000000001,0.0219628328536098,0.399999921152896
0.00232600000000001,0.0220592631813153,0.39999992111904
0.00233600000000001,0.022155714253033,0.399999921085028
0.00234600000000001,0.0222521861594629,0.39999992105086
0.00235600000000001,0.022348678991325,0.399999921016536
0.00236600000000001,0.0224451928393587,0.399999920982057
0.00237600000000001,0.0225417277943233,0.399999920947421
0.00238600000000001,0.0226382839469979,0.399999920912628
0.00239600000000001,0.0227348613881814,0.39999992087768
0.00240600000000001,0.022831460208693,0.399999920842574
0.00241600000000001,0.0229280804993719,0.399999920807312
0.00242600000000001,0.0230247223510772,0.399999920771894
0.00243600000000001,0.0231213858546887,0.399999920736318
0.00244600000000001,0.0232180711011064,0.399999920700585
0.00245600000000001,0.0233147781812506,0.399999920664695
0.00246600000000001,0.0234115071860623,0.399999920628648
0.00247600000000001,0.0235082582065031,0.399999920592443
0.00248600000000001,0.0236050313335552,0.39999992055608
0.00249600000000001,0.0237018266582218,0.39999992051956
0.00250600000000001,0.0237986442715266,0.399999920482881
0.00251600000000001,0.0238954842645147,0.399999920446045
0.00252600000000001,0.0239923467282519,0.399999920409051
0.00253600000000001,0.0240892317538253,0.399999920371898
0.00254600000000001,0.0241861394323432,0.399999920334587
0.00255600000000001,0.0242830698549352,0.399999920297117
0.00256600000000001,0.0243800231127522,0.399999920259488
0.00257600000000001,0.0244769992969666,0.399999920221701
0.00258600000000001,0.0245739984987725,0.399999920183754
0.00259600000000001,0.0246710208093854,0.399999920145648
0.00260600000000001,0.0247680663200429,0.399999920107383
0.00261600000000001,0.0248651351220039,0.399999920068959
0.00262600000000001,0.0249622273065497,0.399999920030374
0.00263600000000001,0.0250593429649832,0.399999919991631
0.00264600000000001,0.0251564821886297,0.399999919952727
0.00265600000000001,0.0252536450688364,0.399999919913663
0.00266600000000001,0.0253508316969729,0.399999919874439
0.00267600000000001,0.025448042164431,0.399999919835055
0.00268600000000001,0.0255452765626251,0.39999991979551
0.00269600000000001,0.0256425349829919,0.399999919755805
0.00270600000000001,0.0257398175169909,0.399999919715938
0.00271600000000001,0.025837124256104,0.399999919675911
0.00272600000000001,0.0259344552918361,0.399999919635723
0.00273600000000001,0.0260318107157149,0.399999919595373
0.00274600000000001,0.026129190619291,0.399999919554862
0.00275600000000001,0.0262265950941379,0.39999991951419
0.00276600000000001,0.0263240242318525,0.399999919473356
0.00277600000000001,0.0264214781240545,0.39999991943236
0.00278600000000001,0.0265189568623873,0.399999919391202
0.00279600000000001,0.0266164605385173,0.399999919349882
0.00280600000000001,0.0267139892441346,0.3999999193084
0.00281600000000001,0.0268115430709526,0.399999919266755
0.00282600000000001,0.0269091221107086,0.399999919224947
0.00283600000000001,0.0270067264551634,0.399999919182977
0.00284600000000001,0.0271043561961017,0.399999919140844
0.00285600000000001,0.027202011425332,0.399999919098547
0.00286600000000001,0.0272996922346868,0.399999919056088
0.00287600000000001,0.0273973987160228,0.399999919013465
0.00288600000000001,0.0274951309612205,0.399999918970678
0.00289600000000001,0.0275928890621849,0.399999918927728
0.00290600000000001,0.0276906731108453,0.399999918884614
0.00291600000000001,0.0277884831991552,0.399999918841335
0.00292600000000001,0.0278863194190929,0.399999918797893
0.00293600000000001,0.027984181862661,0.399999918754286
0.00294600000000001,0.0280820706218869,0.399999918710514
0.00295600000000001,0.0281799857888226,0.399999918666578
0.00296600000000001,0.0282779274555452,0.399999918622477
0.00297600000000001,0.0283758957141564,0.399999918578211
0.00298600000000001,0.0284738906567831,0.39999991853378
0.00299600000000001,0.0285719123755772,0.399999918489183
0.00300600000000001,0.0286699609627159,0.399999918444421
0.00301600000000001,0.0287680365104016,0.399999918399493
0.00302600000000001,0.0288661391108619,0.399999918354399
0.00303600000000001,0.0289642688563502,0.399999918309139
0.00304600000000001,0.029062425839145,0.399999918263713
0.00305600000000001,0.0291606101515507,0.399999918218121
0.00306600000000001,0.0292588218858973,0.399999918172362
0.00307600000000001,0.0293570611345406,0.399999918126436
0.00308600000000001,0.0294553279898623,0.399999918080343
0.00309600000000001,0.0295536225442699,0.399999918034083
0.00310600000000001,0.0296519448901973,0.399999917987656
0.00311600000000001,0.0297502951201041,0.399999917941062
0.00312600000000001,0.0298486733264764,0.3999999178943
0.00313600000000001,0.0299470796018265,0.39999991784737
0.00314600000000001,0.0300455140386932,0.399999917800272
0.00315600000000001,0.0301439767296417,0.399999917753006
0.00316600000000001,0.0302424677672637,0.399999917705572
0.00317600000000001,0.0303409872441776,0.399999917657969
0.00318600000000001,0.0304395352530287,0.399999917610197
0.00319600000000001,0.030538111886489,0.399999917562257
0.00320600000000001,0.0306367172372573,0.399999917514148
0.00321600000000001,0.0307353513980596,0.399999917465869
0.00322600000000001,0.0308340144616488,0.399999917417421
0.00323600000000001,0.0309327065208052,0.399999917368804
0.00324600000000001,0.0310314276683363,0.399999917320016
0.00325600000000001,0.0311301779970767,0.399999917271059
0.00326600000000001,0.0312289575998889,0.399999917221932
0.00327600000000001,0.0313277665696624,0.399999917172634
0.00328600000000001,0.0314266049993148,0.399999917123166
0.00329600000000001,0.0315254729817911,0.399999917073527
0.00330600000000001,0.0316243706100642,0.399999917023717
0.00331600000000001,0.0317232979771348,0.399999916973736
0.00332600000000001,0.0318222551760317,0.399999916923584
0.00333600000000001,0.0319212422998116,0.39999991687326
0.00334600000000001,0.0320202594415594,0.399999916822765
0.00335600000000001,0.0321193066943882,0.399999916772098
0.00336600000000001,0.0322183841514395,0.399999916721259
0.00337600000000001,0.0323174919058832,0.399999916670248
0.00338600000000001,0.0324166300509175,0.399999916619065
0.00339600000000001,0.0325157986797694,0.399999916567709
0.00340600000000001,0.0326149978856944,0.39999991651618
0.00341600000000001,0.032714227761977,0.399999916464478
0.00342600000000001,0.0328134884019301,0.399999916412603
0.00343600000000001,0.0329127798988961,0.399999916360554
0.00344600000000001,0.0330121023462459,0.399999916308332
0.00345600000000001,0.0331114558373797,0.399999916255936
0.00346600000000001,0.033210840465727,0.399999916203367
0.00347600000000001,0.0333102563247465,0.399999916150623
0.00348600000000001,0.0334097035079261,0.399999916097705
0.00349600000000001,0.0335091821087835,0.399999916044612
0.00350600000000001,0.0336086922208656,0.399999915991345
0.00351600000000001,0.0337082339377491,0.399999915937902
0.00352600000000001,0.0338078073530404,0.399999915884285
0.00353600000000001,0.0339074125603757,0.399999915830492
0.00354600000000001,0.0340070496534212,0.399999915776524
0.00355600000000001,0.0341067187258728,0.399999915722379
0.00356600000000001,0.0342064198714567,0.399999915668059
0.00357600000000001,0.0343061531839293,0.399999915613563
0.00358600000000001,0.0344059187570771,0.39999991555889
0.00359600000000001,0.0345057166847169,0.399999915504041
0.00360600000000001,0.0346055470606961,0.399999915449015
0.00361600000000001,0.0347054099788925,0.399999915393812
0.00362600000000001,0.0348053055332146,0.399999915338432
0.00363600000000001,0.0349052338176014,0.399999915282874
0.00364600000000001,0.0350051949260228,0.399999915227139
0.00365600000000001,0.0351051889524796,0.399999915171226
0.00366600000000001,0.0352052159910034,0.399999915115135
0.00367600000000001,0.0353052761356571,0.399999915058866
0.00368600000000001,0.0354053694805345,0.399999915002418
0.00369600000000001,0.0355054961197607,0.399999914945792
0.00370600000000001,0.035605656147492,0.399999914888986
0.00371600000000001,0.0357058496579164,0.399999914832002
0.00372600000000001,0.035806076745253,0.399999914774838
0.00373600000000001,0.0359063375037527,0.399999914717495
0.00374600000000001,0.0360066320276981,0.399999914659972
0.00375600000000001,0.0361069604114034,0.399999914602269
0.00376600000000001,0.0362073227492146,0.399999914544386
0.00377600000000001,0.03630771913551,0.399999914486323
0.00378600000000001,0.0364081496646994,0.399999914428079
